#Lambda Flux(Jy)
10.000	0.01185
10.001	0.01176
10.002	0.01166
10.003	0.01154
10.004	0.01141
10.005	0.01127
10.006	0.01112
10.007	0.01096
10.008	0.01079
10.009	0.01062
10.010	0.01044
10.011	0.01026
10.012	0.01008
10.013	0.00988
10.014	0.00968
10.015	0.00947
10.016	0.00926
10.017	0.00904
10.018	0.00881
10.019	0.00857
10.020	0.00833
10.021	0.00808
10.022	0.00783
10.023	0.00756
10.024	0.00730
10.025	0.00702
10.026	0.00674
10.027	0.00645
10.028	0.00615
10.029	0.00585
10.030	0.00554
10.031	0.00522
10.032	0.00488
10.033	0.00454
10.034	0.00420
10.035	0.00384
10.036	0.00348
10.037	0.00312
10.038	0.00275
10.039	0.00238
10.040	0.00201
10.041	0.00164
10.042	0.00125
10.043	0.00086
10.044	0.00046
10.045	0.00005
10.046	-0.00035
10.047	-0.00075
10.048	-0.00113
10.049	-0.00151
10.050	-0.00187
10.051	-0.00221
10.052	-0.00256
10.053	-0.00291
10.054	-0.00324
10.055	-0.00357
10.056	-0.00389
10.057	-0.00419
10.058	-0.00447
10.059	-0.00472
10.060	-0.00495
10.061	-0.00516
10.062	-0.00534
10.063	-0.00551
10.064	-0.00566
10.065	-0.00579
10.066	-0.00590
10.067	-0.00598
10.068	-0.00605
10.069	-0.00609
10.070	-0.00610
10.071	-0.00610
10.072	-0.00606
10.073	-0.00600
10.074	-0.00591
10.075	-0.00580
10.076	-0.00567
10.077	-0.00553
10.078	-0.00536
10.079	-0.00518
10.080	-0.00499
10.081	-0.00479
10.082	-0.00456
10.083	-0.00432
10.084	-0.00405
10.085	-0.00377
10.086	-0.00347
10.087	-0.00317
10.088	-0.00285
10.089	-0.00253
10.090	-0.00222
10.091	-0.00190
10.092	-0.00157
10.093	-0.00123
10.094	-0.00088
10.095	-0.00053
10.096	-0.00017
10.097	0.00019
10.098	0.00055
10.099	0.00091
10.100	0.00126
10.101	0.00159
10.102	0.00193
10.103	0.00226
10.104	0.00260
10.105	0.00294
10.106	0.00326
10.107	0.00359
10.108	0.00390
10.109	0.00420
10.110	0.00449
10.111	0.00476
10.112	0.00501
10.113	0.00526
10.114	0.00550
10.115	0.00572
10.116	0.00594
10.117	0.00614
10.118	0.00632
10.119	0.00649
10.120	0.00665
10.121	0.00679
10.122	0.00690
10.123	0.00701
10.124	0.00709
10.125	0.00717
10.126	0.00722
10.127	0.00726
10.128	0.00729
10.129	0.00730
10.130	0.00729
10.131	0.00727
10.132	0.00724
10.133	0.00718
10.134	0.00710
10.135	0.00700
10.136	0.00689
10.137	0.00676
10.138	0.00663
10.139	0.00648
10.140	0.00633
10.141	0.00617
10.142	0.00601
10.143	0.00584
10.144	0.00566
10.145	0.00547
10.146	0.00527
10.147	0.00507
10.148	0.00486
10.149	0.00464
10.150	0.00443
10.151	0.00421
10.152	0.00399
10.153	0.00378
10.154	0.00356
10.155	0.00334
10.156	0.00312
10.157	0.00289
10.158	0.00266
10.159	0.00244
10.160	0.00220
10.161	0.00197
10.162	0.00174
10.163	0.00150
10.164	0.00127
10.165	0.00103
10.166	0.00079
10.167	0.00055
10.168	0.00031
10.169	0.00007
10.170	-0.00017
10.171	-0.00042
10.172	-0.00067
10.173	-0.00092
10.174	-0.00118
10.175	-0.00144
10.176	-0.00170
10.177	-0.00196
10.178	-0.00223
10.179	-0.00249
10.180	-0.00276
10.181	-0.00303
10.182	-0.00329
10.183	-0.00355
10.184	-0.00381
10.185	-0.00407
10.186	-0.00434
10.187	-0.00462
10.188	-0.00489
10.189	-0.00515
10.190	-0.00541
10.191	-0.00566
10.192	-0.00588
10.193	-0.00609
10.194	-0.00628
10.195	-0.00646
10.196	-0.00663
10.197	-0.00679
10.198	-0.00693
10.199	-0.00706
10.200	-0.00718
10.201	-0.00727
10.202	-0.00734
10.203	-0.00739
10.204	-0.00741
10.205	-0.00741
10.206	-0.00738
10.207	-0.00732
10.208	-0.00725
10.209	-0.00715
10.210	-0.00704
10.211	-0.00691
10.212	-0.00677
10.213	-0.00661
10.214	-0.00645
10.215	-0.00628
10.216	-0.00608
10.217	-0.00585
10.218	-0.00561
10.219	-0.00535
10.220	-0.00508
10.221	-0.00482
10.222	-0.00456
10.223	-0.00431
10.224	-0.00408
10.225	-0.00388
10.226	-0.00368
10.227	-0.00348
10.228	-0.00327
10.229	-0.00307
10.230	-0.00289
10.231	-0.00272
10.232	-0.00258
10.233	-0.00247
10.234	-0.00239
10.235	-0.00236
10.236	-0.00237
10.237	-0.00242
10.238	-0.00249
10.239	-0.00259
10.240	-0.00273
10.241	-0.00289
10.242	-0.00309
10.243	-0.00331
10.244	-0.00357
10.245	-0.00386
10.246	-0.00418
10.247	-0.00454
10.248	-0.00495
10.249	-0.00540
10.250	-0.00588
10.251	-0.00639
10.252	-0.00692
10.253	-0.00746
10.254	-0.00802
10.255	-0.00858
10.256	-0.00914
10.257	-0.00970
10.258	-0.01030
10.259	-0.01092
10.260	-0.01155
10.261	-0.01220
10.262	-0.01285
10.263	-0.01350
10.264	-0.01413
10.265	-0.01475
10.266	-0.01534
10.267	-0.01589
10.268	-0.01642
10.269	-0.01694
10.270	-0.01746
10.271	-0.01796
10.272	-0.01845
10.273	-0.01891
10.274	-0.01935
10.275	-0.01976
10.276	-0.02013
10.277	-0.02047
10.278	-0.02077
10.279	-0.02104
10.280	-0.02128
10.281	-0.02148
10.282	-0.02166
10.283	-0.02181
10.284	-0.02194
10.285	-0.02203
10.286	-0.02210
10.287	-0.02214
10.288	-0.02215
10.289	-0.02213
10.290	-0.02207
10.291	-0.02198
10.292	-0.02186
10.293	-0.02172
10.294	-0.02155
10.295	-0.02136
10.296	-0.02116
10.297	-0.02094
10.298	-0.02072
10.299	-0.02050
10.300	-0.02025
10.301	-0.01999
10.302	-0.01970
10.303	-0.01940
10.304	-0.01909
10.305	-0.01877
10.306	-0.01845
10.307	-0.01812
10.308	-0.01779
10.309	-0.01747
10.310	-0.01715
10.311	-0.01682
10.312	-0.01649
10.313	-0.01615
10.314	-0.01581
10.315	-0.01547
10.316	-0.01513
10.317	-0.01478
10.318	-0.01444
10.319	-0.01411
10.320	-0.01378
10.321	-0.01345
10.322	-0.01312
10.323	-0.01280
10.324	-0.01247
10.325	-0.01215
10.326	-0.01183
10.327	-0.01151
10.328	-0.01119
10.329	-0.01087
10.330	-0.01055
10.331	-0.01024
10.332	-0.00993
10.333	-0.00962
10.334	-0.00931
10.335	-0.00900
10.336	-0.00869
10.337	-0.00839
10.338	-0.00808
10.339	-0.00778
10.340	-0.00748
10.341	-0.00718
10.342	-0.00689
10.343	-0.00659
10.344	-0.00629
10.345	-0.00599
10.346	-0.00569
10.347	-0.00540
10.348	-0.00511
10.349	-0.00483
10.350	-0.00455
10.351	-0.00428
10.352	-0.00402
10.353	-0.00377
10.354	-0.00351
10.355	-0.00326
10.356	-0.00302
10.357	-0.00278
10.358	-0.00255
10.359	-0.00233
10.360	-0.00212
10.361	-0.00192
10.362	-0.00174
10.363	-0.00157
10.364	-0.00141
10.365	-0.00126
10.366	-0.00111
10.367	-0.00098
10.368	-0.00086
10.369	-0.00075
10.370	-0.00066
10.371	-0.00058
10.372	-0.00051
10.373	-0.00047
10.374	-0.00044
10.375	-0.00043
10.376	-0.00043
10.377	-0.00044
10.378	-0.00047
10.379	-0.00051
10.380	-0.00057
10.381	-0.00065
10.382	-0.00074
10.383	-0.00085
10.384	-0.00097
10.385	-0.00111
10.386	-0.00127
10.387	-0.00145
10.388	-0.00164
10.389	-0.00185
10.390	-0.00208
10.391	-0.00231
10.392	-0.00256
10.393	-0.00282
10.394	-0.00310
10.395	-0.00338
10.396	-0.00368
10.397	-0.00400
10.398	-0.00433
10.399	-0.00468
10.400	-0.00504
10.401	-0.00541
10.402	-0.00578
10.403	-0.00616
10.404	-0.00655
10.405	-0.00693
10.406	-0.00731
10.407	-0.00771
10.408	-0.00811
10.409	-0.00852
10.410	-0.00894
10.411	-0.00937
10.412	-0.00979
10.413	-0.01021
10.414	-0.01062
10.415	-0.01102
10.416	-0.01141
10.417	-0.01178
10.418	-0.01215
10.419	-0.01252
10.420	-0.01289
10.421	-0.01325
10.422	-0.01361
10.423	-0.01395
10.424	-0.01428
10.425	-0.01459
10.426	-0.01488
10.427	-0.01515
10.428	-0.01540
10.429	-0.01563
10.430	-0.01584
10.431	-0.01605
10.432	-0.01623
10.433	-0.01640
10.434	-0.01655
10.435	-0.01668
10.436	-0.01679
10.437	-0.01688
10.438	-0.01695
10.439	-0.01700
10.440	-0.01703
10.441	-0.01703
10.442	-0.01701
10.443	-0.01698
10.444	-0.01692
10.445	-0.01685
10.446	-0.01676
10.447	-0.01666
10.448	-0.01654
10.449	-0.01640
10.450	-0.01625
10.451	-0.01608
10.452	-0.01589
10.453	-0.01568
10.454	-0.01545
10.455	-0.01521
10.456	-0.01496
10.457	-0.01469
10.458	-0.01443
10.459	-0.01415
10.460	-0.01387
10.461	-0.01359
10.462	-0.01330
10.463	-0.01299
10.464	-0.01267
10.465	-0.01234
10.466	-0.01201
10.467	-0.01167
10.468	-0.01133
10.469	-0.01100
10.470	-0.01067
10.471	-0.01034
10.472	-0.01002
10.473	-0.00969
10.474	-0.00936
10.475	-0.00902
10.476	-0.00869
10.477	-0.00836
10.478	-0.00804
10.479	-0.00772
10.480	-0.00741
10.481	-0.00712
10.482	-0.00684
10.483	-0.00658
10.484	-0.00632
10.485	-0.00606
10.486	-0.00581
10.487	-0.00557
10.488	-0.00534
10.489	-0.00513
10.490	-0.00493
10.491	-0.00475
10.492	-0.00459
10.493	-0.00446
10.494	-0.00434
10.495	-0.00424
10.496	-0.00416
10.497	-0.00409
10.498	-0.00404
10.499	-0.00401
10.500	-0.00400
10.501	-0.00400
10.502	-0.00402
10.503	-0.00406
10.504	-0.00411
10.505	-0.00419
10.506	-0.00429
10.507	-0.00441
10.508	-0.00455
10.509	-0.00471
10.510	-0.00489
10.511	-0.00507
10.512	-0.00526
10.513	-0.00546
10.514	-0.00566
10.515	-0.00586
10.516	-0.00607
10.517	-0.00629
10.518	-0.00652
10.519	-0.00676
10.520	-0.00701
10.521	-0.00726
10.522	-0.00751
10.523	-0.00776
10.524	-0.00800
10.525	-0.00823
10.526	-0.00845
10.527	-0.00865
10.528	-0.00885
10.529	-0.00906
10.530	-0.00925
10.531	-0.00944
10.532	-0.00963
10.533	-0.00980
10.534	-0.00997
10.535	-0.01012
10.536	-0.01026
10.537	-0.01038
10.538	-0.01048
10.539	-0.01056
10.540	-0.01063
10.541	-0.01069
10.542	-0.01073
10.543	-0.01076
10.544	-0.01078
10.545	-0.01080
10.546	-0.01080
10.547	-0.01081
10.548	-0.01080
10.549	-0.01080
10.550	-0.01078
10.551	-0.01074
10.552	-0.01070
10.553	-0.01065
10.554	-0.01060
10.555	-0.01054
10.556	-0.01048
10.557	-0.01043
10.558	-0.01037
10.559	-0.01033
10.560	-0.01029
10.561	-0.01025
10.562	-0.01021
10.563	-0.01017
10.564	-0.01014
10.565	-0.01010
10.566	-0.01007
10.567	-0.01004
10.568	-0.01002
10.569	-0.01000
10.570	-0.00999
10.571	-0.00999
10.572	-0.01000
10.573	-0.01001
10.574	-0.01003
10.575	-0.01006
10.576	-0.01009
10.577	-0.01013
10.578	-0.01016
10.579	-0.01020
10.580	-0.01023
10.581	-0.01025
10.582	-0.01028
10.583	-0.01030
10.584	-0.01032
10.585	-0.01035
10.586	-0.01037
10.587	-0.01040
10.588	-0.01042
10.589	-0.01043
10.590	-0.01044
10.591	-0.01044
10.592	-0.01043
10.593	-0.01040
10.594	-0.01037
10.595	-0.01032
10.596	-0.01027
10.597	-0.01020
10.598	-0.01013
10.599	-0.01005
10.600	-0.00997
10.601	-0.00988
10.602	-0.00978
10.603	-0.00967
10.604	-0.00956
10.605	-0.00945
10.606	-0.00932
10.607	-0.00918
10.608	-0.00903
10.609	-0.00887
10.610	-0.00871
10.611	-0.00855
10.612	-0.00838
10.613	-0.00822
10.614	-0.00807
10.615	-0.00792
10.616	-0.00778
10.617	-0.00764
10.618	-0.00750
10.619	-0.00736
10.620	-0.00722
10.621	-0.00709
10.622	-0.00696
10.623	-0.00683
10.624	-0.00672
10.625	-0.00662
10.626	-0.00653
10.627	-0.00646
10.628	-0.00640
10.629	-0.00636
10.630	-0.00632
10.631	-0.00630
10.632	-0.00628
10.633	-0.00628
10.634	-0.00628
10.635	-0.00630
10.636	-0.00632
10.637	-0.00634
10.638	-0.00638
10.639	-0.00642
10.640	-0.00648
10.641	-0.00655
10.642	-0.00663
10.643	-0.00672
10.644	-0.00682
10.645	-0.00691
10.646	-0.00701
10.647	-0.00711
10.648	-0.00720
10.649	-0.00729
10.650	-0.00737
10.651	-0.00746
10.652	-0.00754
10.653	-0.00763
10.654	-0.00772
10.655	-0.00780
10.656	-0.00788
10.657	-0.00796
10.658	-0.00802
10.659	-0.00808
10.660	-0.00812
10.661	-0.00815
10.662	-0.00817
10.663	-0.00818
10.664	-0.00817
10.665	-0.00816
10.666	-0.00813
10.667	-0.00810
10.668	-0.00807
10.669	-0.00802
10.670	-0.00798
10.671	-0.00792
10.672	-0.00787
10.673	-0.00780
10.674	-0.00772
10.675	-0.00763
10.676	-0.00753
10.677	-0.00743
10.678	-0.00732
10.679	-0.00721
10.680	-0.00711
10.681	-0.00701
10.682	-0.00692
10.683	-0.00684
10.684	-0.00678
10.685	-0.00672
10.686	-0.00666
10.687	-0.00661
10.688	-0.00656
10.689	-0.00651
10.690	-0.00648
10.691	-0.00646
10.692	-0.00645
10.693	-0.00647
10.694	-0.00650
10.695	-0.00657
10.696	-0.00665
10.697	-0.00676
10.698	-0.00688
10.699	-0.00702
10.700	-0.00718
10.701	-0.00736
10.702	-0.00755
10.703	-0.00776
10.704	-0.00798
10.705	-0.00821
10.706	-0.00846
10.707	-0.00873
10.708	-0.00902
10.709	-0.00933
10.710	-0.00967
10.711	-0.01002
10.712	-0.01038
10.713	-0.01076
10.714	-0.01114
10.715	-0.01151
10.716	-0.01189
10.717	-0.01226
10.718	-0.01262
10.719	-0.01298
10.720	-0.01335
10.721	-0.01373
10.722	-0.01412
10.723	-0.01450
10.724	-0.01488
10.725	-0.01525
10.726	-0.01561
10.727	-0.01594
10.728	-0.01625
10.729	-0.01653
10.730	-0.01678
10.731	-0.01701
10.732	-0.01723
10.733	-0.01743
10.734	-0.01761
10.735	-0.01778
10.736	-0.01792
10.737	-0.01803
10.738	-0.01813
10.739	-0.01819
10.740	-0.01823
10.741	-0.01824
10.742	-0.01822
10.743	-0.01816
10.744	-0.01808
10.745	-0.01797
10.746	-0.01783
10.747	-0.01767
10.748	-0.01749
10.749	-0.01729
10.750	-0.01707
10.751	-0.01684
10.752	-0.01658
10.753	-0.01632
10.754	-0.01602
10.755	-0.01570
10.756	-0.01535
10.757	-0.01498
10.758	-0.01459
10.759	-0.01419
10.760	-0.01378
10.761	-0.01337
10.762	-0.01296
10.763	-0.01256
10.764	-0.01217
10.765	-0.01178
10.766	-0.01137
10.767	-0.01096
10.768	-0.01054
10.769	-0.01012
10.770	-0.00971
10.771	-0.00929
10.772	-0.00889
10.773	-0.00850
10.774	-0.00814
10.775	-0.00779
10.776	-0.00747
10.777	-0.00716
10.778	-0.00686
10.779	-0.00657
10.780	-0.00630
10.781	-0.00604
10.782	-0.00579
10.783	-0.00557
10.784	-0.00537
10.785	-0.00519
10.786	-0.00504
10.787	-0.00491
10.788	-0.00482
10.789	-0.00475
10.790	-0.00470
10.791	-0.00467
10.792	-0.00467
10.793	-0.00469
10.794	-0.00473
10.795	-0.00480
10.796	-0.00490
10.797	-0.00502
10.798	-0.00516
10.799	-0.00534
10.800	-0.00554
10.801	-0.00578
10.802	-0.00604
10.803	-0.00633
10.804	-0.00664
10.805	-0.00698
10.806	-0.00734
10.807	-0.00773
10.808	-0.00813
10.809	-0.00855
10.810	-0.00898
10.811	-0.00943
10.812	-0.00991
10.813	-0.01041
10.814	-0.01094
10.815	-0.01150
10.816	-0.01207
10.817	-0.01265
10.818	-0.01325
10.819	-0.01385
10.820	-0.01446
10.821	-0.01506
10.822	-0.01567
10.823	-0.01627
10.824	-0.01688
10.825	-0.01751
10.826	-0.01816
10.827	-0.01880
10.828	-0.01946
10.829	-0.02010
10.830	-0.02075
10.831	-0.02138
10.832	-0.02200
10.833	-0.02260
10.834	-0.02318
10.835	-0.02374
10.836	-0.02430
10.837	-0.02485
10.838	-0.02539
10.839	-0.02592
10.840	-0.02644
10.841	-0.02694
10.842	-0.02743
10.843	-0.02789
10.844	-0.02833
10.845	-0.02875
10.846	-0.02914
10.847	-0.02950
10.848	-0.02984
10.849	-0.03016
10.850	-0.03046
10.851	-0.03073
10.852	-0.03099
10.853	-0.03123
10.854	-0.03145
10.855	-0.03165
10.856	-0.03184
10.857	-0.03201
10.858	-0.03218
10.859	-0.03231
10.860	-0.03243
10.861	-0.03253
10.862	-0.03260
10.863	-0.03267
10.864	-0.03272
10.865	-0.03275
10.866	-0.03278
10.867	-0.03281
10.868	-0.03283
10.869	-0.03284
10.870	-0.03286
10.871	-0.03287
10.872	-0.03286
10.873	-0.03284
10.874	-0.03281
10.875	-0.03278
10.876	-0.03275
10.877	-0.03271
10.878	-0.03267
10.879	-0.03264
10.880	-0.03262
10.881	-0.03260
10.882	-0.03259
10.883	-0.03258
10.884	-0.03257
10.885	-0.03256
10.886	-0.03255
10.887	-0.03255
10.888	-0.03255
10.889	-0.03255
10.890	-0.03255
10.891	-0.03257
10.892	-0.03258
10.893	-0.03261
10.894	-0.03264
10.895	-0.03268
10.896	-0.03272
10.897	-0.03278
10.898	-0.03283
10.899	-0.03289
10.900	-0.03295
10.901	-0.03302
10.902	-0.03308
10.903	-0.03315
10.904	-0.03321
10.905	-0.03328
10.906	-0.03334
10.907	-0.03340
10.908	-0.03347
10.909	-0.03354
10.910	-0.03361
10.911	-0.03367
10.912	-0.03374
10.913	-0.03381
10.914	-0.03387
10.915	-0.03393
10.916	-0.03399
10.917	-0.03404
10.918	-0.03409
10.919	-0.03415
10.920	-0.03419
10.921	-0.03424
10.922	-0.03429
10.923	-0.03433
10.924	-0.03437
10.925	-0.03440
10.926	-0.03443
10.927	-0.03445
10.928	-0.03447
10.929	-0.03448
10.930	-0.03448
10.931	-0.03447
10.932	-0.03446
10.933	-0.03445
10.934	-0.03443
10.935	-0.03440
10.936	-0.03437
10.937	-0.03433
10.938	-0.03429
10.939	-0.03423
10.940	-0.03418
10.941	-0.03411
10.942	-0.03404
10.943	-0.03396
10.944	-0.03387
10.945	-0.03378
10.946	-0.03368
10.947	-0.03357
10.948	-0.03346
10.949	-0.03335
10.950	-0.03323
10.951	-0.03310
10.952	-0.03297
10.953	-0.03284
10.954	-0.03270
10.955	-0.03256
10.956	-0.03240
10.957	-0.03224
10.958	-0.03208
10.959	-0.03191
10.960	-0.03174
10.961	-0.03157
10.962	-0.03140
10.963	-0.03123
10.964	-0.03107
10.965	-0.03091
10.966	-0.03075
10.967	-0.03059
10.968	-0.03042
10.969	-0.03025
10.970	-0.03009
10.971	-0.02993
10.972	-0.02976
10.973	-0.02961
10.974	-0.02945
10.975	-0.02931
10.976	-0.02917
10.977	-0.02903
10.978	-0.02891
10.979	-0.02879
10.980	-0.02868
10.981	-0.02857
10.982	-0.02847
10.983	-0.02837
10.984	-0.02827
10.985	-0.02818
10.986	-0.02808
10.987	-0.02799
10.988	-0.02790
10.989	-0.02780
10.990	-0.02771
10.991	-0.02762
10.992	-0.02754
10.993	-0.02747
10.994	-0.02739
10.995	-0.02731
10.996	-0.02724
10.997	-0.02715
10.998	-0.02706
10.999	-0.02696
11.000	-0.02684
11.001	-0.02672
11.002	-0.02658
11.003	-0.02644
11.004	-0.02630
11.005	-0.02615
11.006	-0.02599
11.007	-0.02583
11.008	-0.02565
11.009	-0.02546
11.010	-0.02526
11.011	-0.02505
11.012	-0.02482
11.013	-0.02457
11.014	-0.02430
11.015	-0.02401
11.016	-0.02371
11.017	-0.02340
11.018	-0.02307
11.019	-0.02273
11.020	-0.02237
11.021	-0.02201
11.022	-0.02164
11.023	-0.02125
11.024	-0.02086
11.025	-0.02046
11.026	-0.02005
11.027	-0.01962
11.028	-0.01918
11.029	-0.01872
11.030	-0.01825
11.031	-0.01777
11.032	-0.01729
11.033	-0.01680
11.034	-0.01632
11.035	-0.01583
11.036	-0.01535
11.037	-0.01488
11.038	-0.01442
11.039	-0.01395
11.040	-0.01348
11.041	-0.01301
11.042	-0.01254
11.043	-0.01206
11.044	-0.01160
11.045	-0.01113
11.046	-0.01068
11.047	-0.01023
11.048	-0.00980
11.049	-0.00938
11.050	-0.00897
11.051	-0.00858
11.052	-0.00819
11.053	-0.00781
11.054	-0.00744
11.055	-0.00707
11.056	-0.00672
11.057	-0.00637
11.058	-0.00604
11.059	-0.00572
11.060	-0.00541
11.061	-0.00511
11.062	-0.00483
11.063	-0.00455
11.064	-0.00430
11.065	-0.00405
11.066	-0.00382
11.067	-0.00360
11.068	-0.00338
11.069	-0.00318
11.070	-0.00299
11.071	-0.00280
11.072	-0.00262
11.073	-0.00244
11.074	-0.00227
11.075	-0.00211
11.076	-0.00196
11.077	-0.00181
11.078	-0.00168
11.079	-0.00155
11.080	-0.00143
11.081	-0.00132
11.082	-0.00120
11.083	-0.00110
11.084	-0.00099
11.085	-0.00089
11.086	-0.00079
11.087	-0.00069
11.088	-0.00059
11.089	-0.00049
11.090	-0.00040
11.091	-0.00031
11.092	-0.00023
11.093	-0.00015
11.094	-0.00007
11.095	0.00001
11.096	0.00009
11.097	0.00016
11.098	0.00023
11.099	0.00030
11.100	0.00037
11.101	0.00043
11.102	0.00049
11.103	0.00055
11.104	0.00061
11.105	0.00067
11.106	0.00072
11.107	0.00077
11.108	0.00082
11.109	0.00087
11.110	0.00092
11.111	0.00097
11.112	0.00102
11.113	0.00107
11.114	0.00112
11.115	0.00116
11.116	0.00121
11.117	0.00125
11.118	0.00130
11.119	0.00134
11.120	0.00138
11.121	0.00142
11.122	0.00145
11.123	0.00149
11.124	0.00152
11.125	0.00155
11.126	0.00158
11.127	0.00161
11.128	0.00164
11.129	0.00167
11.130	0.00169
11.131	0.00171
11.132	0.00174
11.133	0.00175
11.134	0.00177
11.135	0.00178
11.136	0.00179
11.137	0.00180
11.138	0.00180
11.139	0.00180
11.140	0.00180
11.141	0.00180
11.142	0.00179
11.143	0.00178
11.144	0.00177
11.145	0.00176
11.146	0.00174
11.147	0.00172
11.148	0.00170
11.149	0.00167
11.150	0.00164
11.151	0.00161
11.152	0.00157
11.153	0.00153
11.154	0.00149
11.155	0.00144
11.156	0.00139
11.157	0.00135
11.158	0.00130
11.159	0.00125
11.160	0.00120
11.161	0.00115
11.162	0.00110
11.163	0.00105
11.164	0.00099
11.165	0.00094
11.166	0.00088
11.167	0.00082
11.168	0.00076
11.169	0.00071
11.170	0.00066
11.171	0.00062
11.172	0.00058
11.173	0.00055
11.174	0.00053
11.175	0.00051
11.176	0.00050
11.177	0.00049
11.178	0.00049
11.179	0.00049
11.180	0.00049
11.181	0.00050
11.182	0.00052
11.183	0.00054
11.184	0.00056
11.185	0.00059
11.186	0.00063
